Wavelength,0%,0%H,0%V,10%,10%H,10%V,20%,20%H,20%V,30%,30%H,30%V,40%,40%H,40%V,50%,50%H,50%V
300,0.433788,4,4,0.394925,4,4,0.413223,4,4,0.392195,4,4,0.388122,4,3.983489,0.389276,4,4
300.5,0.431662,4,4,0.392923,3.970814,4,0.411178,4,4,0.390284,4,4,0.386125,3.994737,3.994713,0.387221,4,4
301,0.429235,4,4,0.390655,3.994535,4,0.40885,3.988463,4,0.388094,4,4,0.384006,4,3.910665,0.385221,4,4
301.5,0.426603,3.988345,3.970443,0.38812,3.994535,4,0.406354,4,3.967144,0.385892,3.961568,4,0.382072,4,3.947889,0.382982,4,4
302,0.423869,4,3.957882,0.385657,4,3.98298,0.403841,4,4,0.383576,4,4,0.379584,4,4,0.380788,4,4
302.5,0.421051,4,3.988001,0.383564,4,4,0.401385,3.994102,4,0.38137,4,4,0.377294,4,3.970112,0.378437,4,4
303,0.418716,4,3.993939,0.381119,4,3.987667,0.399136,3.98255,4,0.37903,4,4,0.375219,4,4,0.376282,3.973693,4
303.5,0.416246,4,4,0.379083,3.993749,3.977756,0.397048,4,4,0.376927,4,4,0.373177,4,4,0.374257,4,4
304,0.413832,4,4,0.377144,4,4,0.395136,4,4,0.37483,4,4,0.370959,4,4,0.372253,4,4
304.5,0.411556,4,4,0.374857,3.987287,4,0.392787,4,3.993265,0.37295,4,4,0.369107,4,4,0.370416,4,4
305,0.409382,3.993033,4,0.372913,4,4,0.39075,4,4,0.371138,4,4,0.367282,4,4,0.368561,4,4
305.5,0.407122,3.948376,4,0.370561,4,3.957417,0.388457,4,4,0.369181,4,4,0.365403,4,3.976889,0.366432,4,4
306,0.404601,4,4,0.367216,3.978215,3.972062,0.385185,3.954229,4,0.36738,4,4,0.363114,4,4,0.364055,3.994142,3.966163
306.5,0.402637,3.916116,3.961119,0.365473,4,4,0.383463,3.934327,4,0.365651,4,4,0.361318,3.957984,4,0.36238,4,3.994169
307,0.40064,3.985477,4,0.363884,4,4,0.381702,3.972115,4,0.364376,4,4,0.359844,3.957984,4,0.361219,4,4
307.5,0.399102,3.918863,4,0.36236,4,3.994268,0.380158,4,3.994205,0.362906,3.97824,4,0.358625,4,4,0.359816,3.978225,4
308,0.397679,4,4,0.36096,4,3.966948,0.378812,4,4,0.361539,4,3.888733,0.357346,4,4,0.358525,4,4
308.5,0.396067,4,3.929334,0.359647,4,3.952455,0.377436,3.966964,4,0.360214,4,4,0.35608,4,4,0.357567,4,3.98544
309,0.394149,4,4,0.358111,4,4,0.375932,4,3.994318,0.358958,4,4,0.354824,4,3.888251,0.356043,3.985498,4
309.5,0.39292,4,4,0.356953,3.994362,4,0.375104,4,4,0.357591,4,4,0.353714,4,3.961306,0.355026,4,3.985525
310,0.391596,4,4,0.355753,3.985581,4,0.373987,4,3.983088,0.356732,4,4,0.353211,4,3.956695,0.354213,4,4
310.5,0.390385,4,4,0.354685,3.967029,3.939301,0.372686,4,3.994368,0.355768,4,3.994354,0.352015,4,4,0.353134,4,4
311,0.389181,4,4,0.353622,4,4,0.371623,4,4,0.354709,4,4,0.351005,4,4,0.352477,4,4
311.5,0.387596,4,4,0.352693,4,4,0.370565,4,3.944973,0.3539,3.994452,4,0.350225,3.985579,3.98562,0.351688,4,4
312,0.386589,3.967138,3.994501,0.351902,4,3.967118,0.369906,3.994472,3.985664,0.353139,4,4,0.349354,4,4,0.351009,4,3.978434
312.5,0.385539,4,3.989023,0.350942,3.985643,3.952792,0.369036,4,3.978441,0.352274,4,4,0.348667,3.978391,4,0.350346,4,4
313,0.384214,4,3.904238,0.349733,4,4,0.368112,4,4,0.351492,4,3.961477,0.347875,3.979964,3.994372,0.349422,4,4
313.5,0.383527,3.923932,4,0.348883,4,3.864468,0.367289,3.94541,4,0.350917,4,4,0.347299,4,4,0.348945,3.966622,3.979914
314,0.38269,3.886113,4,0.348248,4,3.954417,0.366511,3.967025,4,0.350215,3.978371,4,0.346718,4,3.985513,0.348307,4,4
314.5,0.381616,4,4,0.347332,4,3.954417,0.365858,3.994352,4,0.349464,4,4,0.346002,4,3.958111,0.347998,4,4
315,0.380668,4,3.936371,0.346705,4,3.945134,0.365422,3.994288,4,0.349178,4,4,0.345499,4,3.952356,0.347324,3.978248,4
315.5,0.380077,4,3.903174,0.346048,4,3.956466,0.364701,3.972074,3.950809,0.34852,4,4,0.345239,3.978131,4,0.346904,4,4
316,0.379042,3.94885,3.958021,0.34519,4,3.954214,0.364044,3.972074,3.922882,0.34801,4,4,0.344585,3.966069,4,0.346516,3.932183,3.994032
316.5,0.378562,4,4,0.344799,4,4,0.363526,4,3.978009,0.347377,4,4,0.344129,4,3.961969,0.346037,3.99394,3.994032
317,0.377635,3.961951,3.938534,0.344369,4,4,0.363062,4,4,0.347285,4,4,0.343995,4,3.977882,0.345775,3.928286,3.971786
317.5,0.377147,4,4,0.343808,4,3.971688,0.362648,4,3.966349,0.34669,4,4,0.343805,4,4,0.345558,4,4
318,0.376682,3.993618,4,0.343291,4,4,0.362467,3.993612,3.966349,0.346566,4,4,0.343463,3.977618,4,0.345302,4,4
318.5,0.375899,4,4,0.342949,4,3.850216,0.361704,4,3.9847,0.346122,4,4,0.343035,4,4,0.345031,4,4
319,0.375495,3.964532,3.984497,0.342302,4,3.934304,0.361706,3.938886,4,0.345747,4,4,0.342666,3.993171,4,0.344553,4,4
319.5,0.374942,4,3.921268,0.342165,3.993073,3.925205,0.361382,3.970413,4,0.345413,4,4,0.342515,4,4,0.344631,4,4
320,0.374529,4,4,0.341891,4,3.977186,0.361162,3.960882,4,0.345362,4,4,0.342371,3.992803,4,0.344402,4,3.954874
320.5,0.374297,3.963343,3.992704,0.341547,3.976691,3.956467,0.360884,3.976829,3.925932,0.345184,4,3.992643,0.34219,4,4,0.344308,4,4
321,0.374067,4,4,0.341553,3.965219,3.956467,0.360807,3.976485,3.965215,0.345261,4,3.992643,0.342283,4,3.99245,0.344293,3.99255,4
321.5,0.373765,4,4,0.341123,4,4,0.360848,4,4,0.345365,4,4,0.342334,4,4,0.344196,4,3.99227
322,0.373793,4,4,0.34128,4,4,0.360867,4,4,0.345297,3.975932,4,0.342385,3.983196,4,0.344516,4,4
322.5,0.373751,3.97591,4,0.341248,4,4,0.360888,3.982967,4,0.345383,3.975932,4,0.342314,3.969593,4,0.344547,4,4
323,0.373716,4,3.97549,0.340963,4,4,0.361113,4,4,0.345206,4,3.964189,0.342464,4,4,0.34456,4,4
323.5,0.37361,4,4,0.341031,4,4,0.361136,4,4,0.345281,4,4,0.342699,4,4,0.344791,3.944826,4
324,0.373945,3.991098,4,0.341053,4,4,0.36128,4,3.982218,0.345503,4,4,0.343069,3.974858,4,0.345025,4,3.968961
324.5,0.373801,3.981887,3.974784,0.341433,3.974769,4,0.361617,3.974592,4,0.345806,4,4,0.343042,3.974858,4,0.345226,3.982022,3.974655
325,0.373992,4,3.974429,0.34161,4,4,0.361669,3.965168,3.981667,0.346037,4,4,0.343278,4,4,0.345899,4,4
325.5,0.374507,4,4,0.341832,3.962739,3.990161,0.362205,4,3.981355,0.346583,4,3.974092,0.343827,4,4,0.346219,4,4
326,0.374882,4,4,0.342125,3.962739,3.981099,0.362499,4,4,0.34711,3.953682,3.989736,0.34417,3.970882,4,0.346514,4,4
326.5,0.374687,4,4,0.342371,3.970382,3.795062,0.362702,4,3.980786,0.34707,4,3.989736,0.344577,3.970288,4,0.346928,4,4
327,0.375057,3.969716,4,0.342523,4,3.953171,0.36313,4,4,0.347583,4,4,0.344746,4,3.923742,0.347149,4,4
327.5,0.375308,4,4,0.342898,4,4,0.363692,4,4,0.348024,4,4,0.345472,3.960151,4,0.347825,4,4
328,0.376122,4,4,0.343545,4,4,0.364492,4,4,0.348594,3.922474,4,0.346199,3.968531,4,0.348517,4,4
328.5,0.376514,4,3.927224,0.344009,4,3.99983,0.364999,4,3.952294,0.34904,4,4,0.346622,4,3.960892,0.348809,3.972458,3.988193
329,0.377059,4,4,0.344441,4,3.999292,0.365494,4,4,0.35008,4,4,0.3474,3.999281,4,0.349541,4,4
329.5,0.377671,4,3.954395,0.34494,3.978934,4,0.366096,3.951529,4,0.350196,4,3.971858,0.347812,4,4,0.350208,4,3.97901
330,0.37832,4,3.998894,0.345654,4,4,0.366851,4,3.965257,0.351193,4,4,0.348672,4,4,0.350975,3.998739,4
330.5,0.378897,3.987036,4,0.346149,4,3.902627,0.36765,3.959637,4,0.351735,4,4,0.349348,3.969525,4,0.351611,4,3.957026
331,0.379477,3.957716,4,0.346468,3.97096,3.986965,0.368453,3.959637,4,0.352374,4,4,0.350087,3.998219,4,0.352499,4,3.998315
331.5,0.38021,3.954249,3.934697,0.347801,4,3.986553,0.368955,3.986362,3.937107,0.35328,4,4,0.35075,3.9863,4,0.352955,3.964405,4
332,0.38088,3.883011,4,0.348045,4,3.997495,0.369742,3.970042,4,0.354016,4,3.986104,0.351296,4,3.923417,0.354082,3.971902,3.942782
332.5,0.381497,4,3.949663,0.348613,4,3.996933,0.370714,4,3.939176,0.354714,4,3.976842,0.352182,4,4,0.35495,3.94965,4
333,0.382709,4,3.969595,0.349691,4,3.982486,0.371754,4,4,0.355558,4,3.996678,0.353218,4,4,0.355763,4,3.896838
333.5,0.383102,4,4,0.349987,4,4,0.372692,4,3.945244,0.3563,4,4,0.353649,3.98515,3.933833,0.356374,4,3.948791
334,0.383928,4,4,0.350748,3.996137,4,0.373457,4,4,0.357387,4,4,0.354692,3.957436,3.960729,0.357413,4,3.996039
334.5,0.384892,4,3.984571,0.351648,3.957849,4,0.374373,3.944701,4,0.357957,3.95287,4,0.355559,3.984476,4,0.358376,4,4
335,0.385868,3.968244,4,0.352818,4,4,0.375549,3.984051,4,0.358948,4,4,0.356723,3.876733,4,0.359419,4,4
335.5,0.386929,3.823338,4,0.353712,4,3.983801,0.376447,3.878364,4,0.359886,4,4,0.35745,4,3.961474,0.360349,4,4
336,0.387597,3.861285,4,0.354472,4,3.994894,0.377615,3.936992,4,0.360645,4,4,0.358391,4,4,0.361196,3.941926,4
336.5,0.388843,4,4,0.355318,4,3.983002,0.378453,4,3.84743,0.362085,4,4,0.359668,4,4,0.362553,3.905924,4
337,0.389913,4,3.916777,0.356199,4,3.994014,0.379331,3.946494,4,0.362953,4,4,0.360567,4,4,0.363571,3.976727,4
337.5,0.391161,3.909873,3.92869,0.357355,3.9663,4,0.380644,4,4,0.364103,4,3.966182,0.361927,4,4,0.36453,4,3.915003
338,0.391792,3.993471,4,0.358202,4,3.993174,0.381811,4,4,0.365172,4,4,0.362544,4,4,0.365719,3.981908,3.960018
338.5,0.392996,4,4,0.358919,4,4,0.382775,3.940174,3.985678,0.366094,3.965664,4,0.363529,4,4,0.366637,4,4
339,0.393818,3.903026,4,0.359767,4,4,0.384065,4,4,0.367088,4,4,0.36505,3.972511,4,0.367767,4,3.992457
339.5,0.394831,4,4,0.361362,4,4,0.384963,4,4,0.368006,4,4,0.365896,4,4,0.36858,4,4
340,0.39644,4,3.953814,0.362027,4,3.969783,0.384717,4,3.94766,0.367911,4,4,0.365066,4,3.98103,0.367711,3.980618,4
340.5,0.397653,4,3.845847,0.362282,3.954046,3.970163,0.383643,4,4,0.366672,3.899231,3.997469,0.363278,4,3.997169,0.365676,4,4
341,0.398518,3.881378,4,0.362799,4,3.98188,0.385043,3.934411,3.877229,0.367805,4,4,0.364656,3.94289,3.927041,0.367169,4,4
341.5,0.399434,3.921259,4,0.364621,3.982173,4,0.386133,4,4,0.369343,3.971176,4,0.365919,4,3.970717,0.368392,4,4
342,0.400702,4,3.980081,0.365396,4,4,0.387359,4,3.923748,0.370128,3.971176,3.982585,0.366733,3.942433,3.982795,0.369252,4,4
342.5,0.401808,4,3.999204,0.366529,4,4,0.388469,4,3.982956,0.370935,4,4,0.367964,4,4,0.370499,4,3.999087
343,0.403203,3.946841,3.893042,0.367361,3.903092,3.93351,0.38963,4,4,0.372238,4,4,0.369661,3.999363,4,0.371552,4,4
343.5,0.404412,3.811803,3.967697,0.368632,3.927549,3.963928,0.390676,4,4,0.372896,4,4,0.370307,4,4,0.372541,3.908883,4
344,0.405851,3.957135,4,0.369749,3.96397,4,0.392018,4,3.972801,0.373797,4,3.945452,0.37147,4,4,0.373871,4,4
344.5,0.407155,3.973502,3.924715,0.370705,4,4,0.393393,4,3.930873,0.375697,3.973344,3.803348,0.373084,3.973242,4,0.375265,4,3.964702
345,0.408459,4,4,0.372376,4,4,0.394991,4,4,0.377128,4,4,0.374485,4,3.925927,0.377044,3.701741,3.973814
345.5,0.410026,4,4,0.373625,4,4,0.396304,4,3.876722,0.378366,4,4,0.37589,4,3.974008,0.378184,3.952264,4
346,0.411414,3.985909,4,0.374758,4,4,0.397484,3.986162,3.947289,0.379628,4,3.96601,0.376918,3.952588,3.958789,0.379182,4,4
346.5,0.4123,3.958977,4,0.375751,4,3.975074,0.399057,4,3.874736,0.380768,4,3.952324,0.377916,4,3.958789,0.380761,4,4
347,0.413683,4,4,0.376904,4,4,0.400614,3.895272,4,0.381885,4,4,0.379169,4,4,0.381805,4,4
347.5,0.415104,3.951642,4,0.378627,4,3.987185,0.401955,4,4,0.383653,3.935793,4,0.380479,3.948239,3.951694,0.383508,4,4
348,0.417065,3.932634,4,0.379938,4,4,0.403738,4,4,0.384788,3.987265,4,0.382201,4,3.943241,0.384818,3.947717,4
348.5,0.418249,3.976495,4,0.381151,4,4,0.405088,4,3.940161,0.386366,3.94899,4,0.383582,4,4,0.386135,3.975384,4
349,0.419579,3.960876,3.988234,0.382275,3.913958,4,0.406454,4,4,0.387495,3.921557,4,0.38493,4,4,0.387358,4,4
349.5,0.421265,3.885888,3.929084,0.383847,4,4,0.408113,3.988416,4,0.388799,4,4,0.385846,4,4,0.389196,4,4
350,0.42256,3.837401,4,0.384917,3.900155,4,0.409363,3.914127,4,0.390645,4,4,0.387696,3.950186,3.885135,0.390713,4,4
350.5,0.424457,3.895837,3.923412,0.386405,3.853258,4,0.410772,4,4,0.392531,3.977632,3.930976,0.389444,3.961499,3.90572,0.391938,4,4
351,0.425639,3.95105,4,0.387737,4,3.977922,0.412423,3.958572,4,0.393718,4,4,0.390659,4,4,0.393299,4,3.878988
351.5,0.427075,3.877975,4,0.389323,4,4,0.413946,3.845361,3.908149,0.395044,3.918529,4,0.392086,3.962187,4,0.39497,4,4
352,0.429056,3.956372,4,0.390913,4,3.98988,0.415458,3.907645,4,0.396899,4,4,0.39401,4,4,0.39644,4,3.968259
352.5,0.430424,4,4,0.392731,4,4,0.417316,3.92911,3.969937,0.398437,4,4,0.395494,4,3.990141,0.398138,4,3.952823
353,0.432306,4,4,0.394177,4,3.947213,0.419352,3.939084,4,0.400092,3.914663,4,0.397384,3.932346,3.978835,0.399634,4,4
353.5,0.433991,4,4,0.395466,4,3.99061,0.42072,4,4,0.40143,3.751084,4,0.398928,3.979081,3.979096,0.401308,4,4
354,0.435494,4,3.979303,0.396863,3.979315,3.904965,0.42246,3.936024,3.990678,0.40284,4,4,0.400172,4,4,0.402778,4,3.970476
354.5,0.437187,4,4,0.398542,3.957494,4,0.424062,3.990848,4,0.404781,4,3.934097,0.401448,3.943373,3.957325,0.404228,4,4
355,0.438736,3.99101,4,0.399643,3.915003,3.97959,0.425766,3.979654,3.885005,0.406208,4,4,0.403113,3.868218,4,0.405895,4,3.970767
355.5,0.440262,4,4,0.40086,4,3.991045,0.427383,3.97092,3.912848,0.408057,4,4,0.4048,4,4,0.407685,4,3.979768
356,0.442372,3.842627,4,0.402805,4,3.872549,0.429262,3.97111,3.948983,0.409616,4,4,0.406592,4,4,0.408967,4,4
356.5,0.444165,3.991358,3.952657,0.404592,4,4,0.431097,3.980022,3.963948,0.411182,3.991333,3.991326,0.408191,3.979903,3.991338,0.410829,3.991238,4
357,0.446121,4,4,0.406631,4,4,0.433074,4,4,0.413027,3.991333,4,0.410115,3.971211,3.928032,0.412744,4,4
357.5,0.447843,3.944306,4,0.408279,4,3.857709,0.435099,4,3.958002,0.414798,3.97129,4,0.412217,3.960252,4,0.414775,4,4
358,0.449983,3.980194,4,0.409954,3.948121,3.952782,0.436904,4,4,0.416805,4,4,0.413543,3.980136,3.991455,0.416863,4,4
358.5,0.452002,3.991548,3.991554,0.411852,3.955653,3.958086,0.438951,4,4,0.418909,4,4,0.415433,3.958023,4,0.418527,4,4
359,0.454307,3.922224,4,0.413284,3.900868,4,0.440682,4,3.943946,0.420511,4,4,0.417695,4,4,0.420498,4,3.97128
359.5,0.456002,3.922165,4,0.41503,4,4,0.442721,4,4,0.422403,3.96268,4,0.419013,4,3.980041,0.421713,3.952652,3.971188
360,0.4578,4,4,0.41676,4,4,0.444967,4,3.907834,0.424475,4,4,0.420804,3.963988,4,0.42365,4,3.982639
360.5,0.459212,4,4,0.418553,4,3.963923,0.446672,4,3.971045,0.426022,4,4,0.422787,4,4,0.425702,4,4
361,0.461631,4,3.957663,0.420146,4,4,0.448382,3.970963,3.991169,0.427532,3.961962,3.963639,0.424504,4,4,0.427422,4,4
361.5,0.463356,4,3.979581,0.421786,4,3.97079,0.450159,3.937018,4,0.429255,3.981977,4,0.426208,4,4,0.429528,3.963504,3.943245
362,0.465561,3.9705,3.952132,0.423686,3.922397,4,0.452358,3.915357,3.823488,0.431392,3.957206,4,0.427908,3.963248,3.890105,0.431551,4,3.943245
362.5,0.467046,3.924382,3.933497,0.425021,4,3.979053,0.454201,4,4,0.433343,3.969441,4,0.429955,4,3.990386,0.432826,4,4
363,0.4691,3.978797,4,0.42713,4,3.970119,0.455875,4,4,0.435119,3.916116,4,0.431762,4,4,0.434382,4,4
363.5,0.471181,3.978797,4,0.429087,3.989826,4,0.45843,3.978471,3.989858,0.437294,4,4,0.434075,4,3.885635,0.436465,4,4
364,0.473304,4,4,0.430895,3.989826,4,0.460307,3.924666,3.989425,0.439275,4,4,0.436314,4,3.989498,0.438563,4,4
364.5,0.475369,4,4,0.43281,3.961841,4,0.462524,4,3.978507,0.441148,4,4,0.437522,4,4,0.440242,3.941658,4
365,0.477639,4,4,0.435504,3.952281,4,0.4652,3.935888,3.950373,0.44325,3.994453,3.994553,0.440135,4,3.977738,0.442897,4,3.994378
365.5,0.480027,4,3.88607,0.437076,3.965281,4,0.466799,3.984035,4,0.445228,3.983709,3.919321,0.441682,4,3.938066,0.444863,3.951942,4
366,0.482255,3.980345,3.948624,0.439028,3.96262,3.952129,0.469028,3.984723,3.952857,0.447117,4,3.975395,0.443858,3.984441,3.931156,0.446582,3.753162,4
366.5,0.483944,3.984679,3.942533,0.440987,3.874282,4,0.471325,3.937593,3.92471,0.449339,4,3.976142,0.445594,3.928629,3.893041,0.448594,4,3.976194
367,0.485873,3.958495,3.985601,0.442929,3.95496,3.973425,0.47318,3.985671,3.946723,0.451049,4,3.996771,0.44758,3.996884,3.985351,0.450923,3.963784,4
367.5,0.487947,3.789466,4,0.444676,3.986414,3.97007,0.475477,3.956347,3.834738,0.453,3.997266,4,0.449411,3.97757,4,0.452751,3.920173,4
368,0.490185,3.824815,4,0.44667,3.921836,4,0.477385,3.954489,3.986485,0.454714,4,4,0.451636,3.929171,3.927246,0.454721,3.918307,3.929892
368.5,0.49256,3.860107,3.96174,0.448922,3.965425,3.987374,0.480085,3.98742,3.971236,0.457208,4,4,0.454413,4,3.97681,0.456955,3.986011,3.926472
369,0.49462,3.83748,4,0.450436,4,4,0.482188,3.97226,3.960802,0.458958,3.987888,3.959597,0.456052,4,4,0.459005,3.972071,4
369.5,0.496726,4,4,0.452478,4,3.917975,0.484453,3.908197,4,0.461474,3.979884,3.988284,0.45833,4,3.893479,0.461038,3.999868,4
370,0.499414,3.961985,4,0.454729,3.914861,3.940102,0.486453,3.953237,3.942495,0.463429,3.967153,3.967275,0.460336,3.989146,3.827314,0.463525,4,4
370.5,0.50144,3.967686,4,0.456845,3.865154,3.957597,0.488526,4,4,0.465667,4,4,0.462525,4,3.957664,0.465463,3.974018,4
371,0.503598,4,4,0.458586,3.87054,3.981719,0.490818,3.868836,3.916512,0.467561,3.974129,4,0.464418,4,4,0.467395,4,4
371.5,0.505641,3.991287,3.939765,0.460801,4,3.922279,0.493159,3.918779,4,0.469679,4,4,0.466453,4,3.95523,0.469378,4,4
372,0.508086,3.975913,4,0.462791,3.991947,3.969686,0.495232,3.890198,3.991516,0.471589,3.931919,4,0.46871,4,3.963985,0.471671,3.975603,4
372.5,0.510452,3.975913,4,0.464855,3.947776,4,0.497901,3.860246,3.992007,0.474025,4,3.964699,0.470765,4,3.952022,0.474077,4,4
373,0.512707,3.956542,3.993023,0.466795,4,3.963534,0.500085,3.941969,3.970703,0.476062,3.961068,3.970952,0.472779,3.992663,4,0.476047,3.949749,4
373.5,0.514644,4,4,0.468886,3.844634,3.940797,0.502191,3.884581,4,0.478343,4,4,0.474924,3.91091,4,0.477926,3.971157,4
374,0.517172,3.908699,4,0.470923,3.972577,3.934092,0.504147,3.920032,3.993901,0.480572,3.98528,3.994434,0.477052,3.860929,3.985172,0.479962,4,4
374.5,0.519535,3.93719,3.978813,0.473106,3.994567,3.941051,0.507115,3.930875,4,0.482952,4,3.966826,0.479652,3.995179,3.995128,0.48251,3.978562,3.958464
375,0.522631,3.979547,4,0.475919,4,3.946501,0.509696,4,3.979383,0.48569,3.968636,4,0.482077,3.981734,3.923623,0.485177,4,3.995493
375.5,0.524634,4,3.995872,0.478072,4,3.956473,0.512116,4,3.968776,0.487799,4,3.99629,0.484487,4,4,0.487478,3.974116,3.964722
376,0.527172,3.97489,3.980916,0.479924,3.957583,3.980564,0.514658,3.965497,3.955468,0.490176,4,4,0.486598,4,3.996662,0.489608,3.969588,4
376.5,0.52964,4,3.983577,0.482141,3.997325,4,0.516871,3.981252,4,0.492491,4,3.98161,0.488912,3.98864,4,0.492156,3.99754,4
377,0.532068,3.894078,3.997694,0.484379,4,3.951148,0.519592,3.938129,4,0.494725,4,4,0.491285,3.955408,4,0.494262,3.975695,3.965419
377.5,0.534778,3.872234,3.988773,0.486528,3.971012,3.900173,0.522231,3.979946,3.982657,0.497335,4,4,0.493868,4,3.890355,0.496542,3.933044,3.994953
378,0.537334,4,3.906599,0.488846,3.932904,3.949755,0.525118,4,3.980829,0.499815,3.999087,4,0.496525,3.955313,3.899122,0.499358,3.999232,4
378.5,0.539902,3.984279,3.923168,0.491884,3.94997,3.865167,0.52764,4,4,0.502362,3.983737,3.93535,0.498716,3.999735,4,0.501929,4,3.984242
379,0.542736,3.912351,3.973001,0.494088,3.869979,4,0.530338,3.905881,3.930207,0.504891,3.903324,3.968368,0.501173,3.957577,4,0.504223,4,3.984797
379.5,0.545511,3.9855,4,0.496376,3.979197,3.893147,0.532525,4,3.923613,0.507402,3.96137,4,0.503764,3.851036,3.939224,0.506834,4,3.867939
380,0.548158,3.894157,3.985929,0.498764,3.920619,3.992861,0.535734,3.974673,3.88765,0.50989,4,3.897315,0.50649,4,3.874498,0.509522,4,3.945029
380.5,0.551183,3.885825,3.952885,0.501354,3.857251,3.970578,0.5385,3.950421,3.937634,0.51258,4,3.869828,0.509275,3.962647,3.884266,0.512167,4,3.993545
381,0.553699,3.922848,3.838056,0.504034,3.906575,3.815317,0.541338,3.822253,3.872893,0.515198,3.956693,3.879183,0.51167,4,3.866801,0.514665,3.943785,3.887437
381.5,0.556622,3.963666,3.921974,0.506628,3.976325,3.704441,0.543899,3.932855,3.799791,0.518085,3.957679,3.960812,0.514205,3.899946,3.68843,0.517145,3.732447,3.885076
382,0.559476,3.858199,3.880591,0.508899,3.835791,3.761768,0.546888,3.753157,3.742161,0.520552,3.79547,3.866575,0.516657,3.734308,3.69589,0.519633,3.677247,3.75435
382.5,0.562179,3.42373,3.675412,0.511241,3.65408,3.610676,0.549434,3.705577,3.677505,0.522886,3.557508,3.662301,0.519193,3.672593,3.540597,0.522002,3.761425,3.447782
383,0.564997,3.37346,3.833064,0.513691,3.401135,3.42677,0.551924,3.488884,3.478568,0.52547,3.530709,3.56863,0.521444,3.479768,3.602702,0.524845,3.635668,3.290201
383.5,0.567605,3.187513,3.57762,0.515964,3.304099,3.245503,0.554574,3.375725,3.444521,0.527844,3.419448,3.282198,0.523854,3.364938,3.187374,0.526719,3.37789,3.251985
