Wavelength,0%,0%H,0%V,10%,10%H,10%V,20%,20%H,20%V,30%,30%H,30%V,V_baseline,H_baseline
300.0,0.207481,-0.03570599999999979,-0.18560199999999982,0.199845,0.0,0.0,0.197765,-0.09904899999999994,0.0,0.198394,0.0,-0.04390099999999997,4.0,4.0
300.5,0.206436,-0.07404900000000003,-0.09028230000000015,0.198816,-0.02193999999999985,0.026298699999999897,0.196824,-0.059998999999999914,0.004350699999999819,0.197359,0.0,0.003473699999999802,3.9737013,4.0
301.0,0.205409,0.007132667000000037,-0.027099299999999715,0.197741,-0.009744332999999994,-0.059985299999999686,0.195763,-0.054292332999999804,-0.07767029999999986,0.19638,-0.051779332999999816,0.005585700000000138,3.9944143,3.992867333
301.5,0.204034,0.010985666999999921,0.019243299999999852,0.196587,-0.030697332999999993,0.013668299999999967,0.194553,0.010985666999999921,-0.01970969999999994,0.195174,0.010985666999999921,0.0137242999999998,3.9807567,3.989014333
302.0,0.202789,0.007215667000000092,-0.029666000000000192,0.195449,-0.01661133299999973,-0.005828999999999862,0.193431,0.007215667000000092,0.0,0.194044,0.007215667000000092,-0.01772000000000018,4.0,3.992784333
302.5,0.201662,0.003986666999999944,0.03372030000000015,0.194309,-0.007952332999999978,-0.03145669999999967,0.192347,0.003986666999999944,0.00381929999999997,0.192825,0.003986666999999944,0.03372030000000015,3.9662797,3.996013333
303.0,0.200437,-0.01760599999999979,0.009326999999999863,0.193117,0.0,0.03569500000000003,0.191136,0.0,0.03569500000000003,0.191754,0.0,0.03569500000000003,3.964305,4.0
303.5,0.199366,-0.03521300000000016,0.009593000000000185,0.191971,-0.06494299999999997,-0.01908500000000002,0.190135,0.0,-0.016964999999999897,0.190653,0.0,0.009593000000000185,3.990407,4.0
304.0,0.19804,0.008132332999999825,0.002723299999999984,0.190899,0.008132332999999825,0.02525030000000017,0.188969,-0.022446667000000087,0.002620300000000242,0.189546,0.008132332999999825,0.02525030000000017,3.9747497,3.991867667
304.5,0.197102,-0.04843900000000012,-0.12521100000000018,0.189821,-0.08439599999999992,-0.0856530000000002,0.188074,-0.030578999999999912,-0.09145000000000003,0.188584,0.0,-0.04402499999999998,4.0,4.0
305.0,0.19594,-0.04812599999999989,-0.05916100000000002,0.188815,0.0,-0.0016880000000001338,0.187105,0.0,-0.011745000000000339,0.187539,0.0,-0.038080000000000336,3.981828,4.0
305.5,0.194842,-0.03763100000000019,0.0,0.187785,0.0,-0.033240999999999854,0.185994,-0.07123599999999985,-0.08282100000000003,0.186351,0.0,-0.0441600000000002,4.0,4.0
306.0,0.19344,-0.04196799999999978,0.0359560000000001,0.186574,0.0,-0.003109999999999946,0.184547,-0.08454400000000017,-0.007887999999999895,0.185287,-0.08828699999999978,-0.04764999999999997,3.949413,4.0
306.5,0.192265,-0.12177799999999994,0.013987699999999936,0.185795,0.0,-0.027991300000000052,0.18363,-0.13198700000000008,-0.05045030000000006,0.18439,-0.026438000000000184,-0.012307300000000243,3.9860123,4.0
307.0,0.191617,-0.009987999999999886,-0.027693699999999932,0.18502,-0.0014240000000000919,-0.0774897000000001,0.183013,0.006022000000000194,-0.03178269999999994,0.183527,0.027829000000000104,-0.06793769999999988,3.9839457,3.972171
307.5,0.190639,0.0048479999999999634,0.01675229999999983,0.184229,-0.08213399999999993,-0.11090270000000002,0.182119,-0.13028299999999993,0.022468299999999886,0.182876,-0.0009640000000001869,0.022468299999999886,3.9775317,3.995152
308.0,0.18998,-0.17829899999999999,0.025133299999999803,0.183421,-0.07096200000000019,-0.0023957000000001116,0.181378,-0.16028600000000015,-0.01264770000000004,0.182225,-0.11786299999999983,0.019402299999999872,3.9748667,4.0
308.5,0.189072,-0.009121333000000398,-0.010673300000000108,0.182714,-0.016522333000000167,-0.12802729999999984,0.18059,-0.015272333000000415,-0.016464299999999987,0.181311,-0.021002333000000206,-0.039637299999999875,3.9961913,3.987436333
309.0,0.188317,0.016343333000000015,-0.00430369999999991,0.181792,0.001855332999999959,-0.02597270000000007,0.180016,0.016343333000000015,0.0028452999999997175,0.180572,-0.06669466700000015,0.017388299999999912,3.9826117,3.983656667
309.5,0.187763,0.0,-0.03494000000000019,0.181286,-0.05788200000000021,-0.03811600000000004,0.1794,0.0,-0.028256999999999977,0.179886,-0.05679899999999982,-0.153327,3.985929,4.0
310.0,0.187211,-0.04117499999999996,-0.13919330000000008,0.180654,-0.016789000000000165,0.020731699999999798,0.17888,0.011004999999999932,-0.000928299999999993,0.179566,-0.030842000000000258,-0.1067863,3.9792683,3.988995
310.5,0.186621,-0.004814999999999792,-0.14913330000000036,0.180057,0.022469000000000072,-0.05266530000000014,0.178226,-0.035410000000000164,0.009243699999999855,0.17896,0.02807000000000004,-0.028420300000000065,3.9907563,3.97193
311.0,0.185878,0.029159667000000056,-0.07739370000000001,0.179474,-0.004129332999999846,0.011202299999999887,0.177507,-0.07805733299999984,-0.004843700000000339,0.178605,0.029159667000000056,-0.010922700000000063,3.9832097,3.970840333
311.5,0.185289,-0.03912433300000018,-0.11289229999999995,0.178822,-0.015674333000000207,-0.07124130000000006,0.176968,0.011970666999999935,-0.06247429999999987,0.178086,-0.04005233300000022,-0.13483929999999988,3.9818393,3.988029333
312.0,0.18471,-0.014395667000000056,-0.005532999999999788,0.17835,-0.16380866700000007,0.0,0.17656,-0.007229666999999829,-0.09215499999999999,0.177722,0.007180332999999983,0.0,4.0,3.992819667
312.5,0.18415,-0.17211299999999996,0.004793299999999778,0.177895,0.0018410000000002036,0.004793299999999778,0.176129,0.0018410000000002036,-0.0441777000000001,0.177142,0.0018410000000002036,-0.015123700000000184,3.9952067,3.998159
313.0,0.183528,-0.01849400000000001,-0.1304639999999999,0.177214,-0.03289900000000001,0.0,0.175509,0.009212999999999916,-0.2265100000000002,0.176663,-0.01849299999999987,-0.08035499999999995,4.0,3.990787
313.5,0.183122,-0.21587033300000025,-0.09289199999999997,0.176714,-0.03825333300000011,-0.09853900000000015,0.175166,0.044922666999999805,-0.07940300000000011,0.176149,-0.01727533300000017,-0.07230500000000006,4.0,3.955077333
314.0,0.182444,-0.030153332999999893,0.021835999999999967,0.176377,-0.03019633300000013,-0.020385000000000097,0.174796,0.013552666999999907,-0.04140999999999995,0.17562,0.019220666999999914,-0.09843899999999994,3.958129,3.980779333
314.5,0.182089,0.012572667000000148,0.028672699999999995,0.176035,-0.08491633299999979,-0.026160299999999914,0.174283,-0.044350332999999686,0.0008507000000004261,0.175341,0.012572667000000148,-0.014324299999999734,3.9435483,3.987427333
315.0,0.181722,-0.0019643329999996517,-0.043098300000000034,0.175621,-0.0019863330000000623,0.049797700000000056,0.174161,-0.060983332999999806,0.049797700000000056,0.175044,0.012572667000000148,0.038253699999999835,3.9502023,3.987427333
315.5,0.181265,-0.04230400000000012,0.0,0.175303,-0.03321500000000022,-0.06552200000000008,0.173652,-0.02796999999999983,-0.10141299999999998,0.17465,-0.043611999999999984,-0.06445699999999999,4.0,4.0
316.0,0.180774,-0.031722999999999946,-0.010598299999999838,0.174797,-0.21865900000000016,-0.03681929999999989,0.173245,-0.023054999999999826,-0.006649299999999858,0.174176,-0.08617199999999992,-0.03938430000000004,3.9727123,3.995085
316.5,0.180591,-0.19247799999999993,-0.01485700000000012,0.174528,-0.0503849999999999,-0.18405199999999988,0.173085,0.004915000000000003,-0.04887599999999992,0.173816,-0.0011719999999999509,-0.06148800000000021,4.0,3.995085
317.0,0.180101,-0.006168999999999869,0.0,0.174144,-0.09989999999999988,-0.033506000000000036,0.172701,0.0,-0.028236999999999846,0.173791,-0.033485999999999905,-0.022086999999999968,4.0,4.0
317.5,0.17967,-0.012455000000000105,-0.06356800000000007,0.173879,-0.0221849999999999,-0.06037299999999979,0.172428,-0.006212000000000106,-0.016039999999999832,0.173636,-0.015133000000000063,0.006250000000000089,3.99375,4.0
318.0,0.179526,-0.012811000000000128,-0.1253036999999999,0.1736,0.0,-0.04588469999999978,0.172289,-0.05301,0.009481300000000026,0.17345,-0.03031499999999987,-0.005747700000000133,3.9905187,4.0
318.5,0.179247,-0.09262000000000015,-0.027448300000000092,0.173117,-0.0286249999999999,0.017087699999999817,0.171919,-0.029093000000000035,0.017087699999999817,0.172957,-0.09310799999999997,-0.013687300000000402,3.9829123,4.0
319.0,0.178698,0.0,0.0,0.172834,-0.022304999999999797,-0.06678000000000006,0.171681,0.0,-0.03119000000000005,0.172707,0.0,-0.028843000000000174,4.0,4.0
319.5,0.178443,-0.12169100000000022,-0.043073999999999835,0.17273,-0.06878099999999998,-0.1760839999999999,0.171401,-0.05841200000000013,0.003770000000000273,0.172477,-0.058248999999999995,0.011079000000000061,3.973273,3.992388
320.0,0.178097,-0.0726110000000002,-0.07882370000000005,0.172597,-0.09335700000000013,-0.04648370000000002,0.170973,-0.02932200000000007,0.007029300000000127,0.172197,-0.01583099999999993,-0.10029069999999995,3.9770537,4.0
320.5,0.177824,-0.12350833299999975,-0.10993699999999995,0.172138,-0.03600133300000019,-0.08400300000000005,0.170706,-0.027509332999999803,0.0,0.171803,-0.005459333000000122,-0.050673999999999886,4.0,3.982049333
321.0,0.177723,0.0,-0.015594999999999803,0.172124,-0.016211000000000197,-0.029114999999999558,0.170809,-0.023553999999999853,-0.03939799999999982,0.171839,0.0,-0.13793599999999984,3.992008,4.0
321.5,0.177639,-0.12421499999999996,-0.04846829999999969,0.172082,-0.01654,-0.07702529999999985,0.17076,-0.0165639999999998,0.035459700000000094,0.171898,-0.03502699999999992,-0.08969629999999995,3.9645403,4.0
322.0,0.177582,-0.0690599999999999,0.12964200000000003,0.172031,-0.016792999999999836,-0.10492499999999971,0.170748,0.0,0.14641500000000018,0.171903,-0.05233199999999982,0.048265000000000224,3.853585,4.0
322.5,0.177397,-0.01689000000000007,-0.011998699999999918,0.172008,-0.024569000000000063,-0.0914356999999999,0.170726,0.0,-0.015497700000000059,0.171878,-0.04677400000000009,-0.05379170000000011,3.9681207,4.0
323.0,0.177204,-0.02769366700000031,-0.013408000000000087,0.171865,-0.1266716670000001,0.017243999999999815,0.170694,0.0028453329999997834,-0.042004000000000374,0.171774,0.0028453329999997834,-0.03470100000000009,3.982756,3.997154667
323.5,0.177128,-0.05767466699999968,-0.10609000000000002,0.171635,-0.06046666700000003,-0.01730300000000007,0.170382,-0.05790866699999997,-0.017384999999999984,0.171735,0.00039933300000027927,-0.07405099999999987,4.0,3.982133667
324.0,0.177141,0.0,0.040938300000000094,0.171675,-0.20369899999999985,-0.10915570000000008,0.170484,-0.07735700000000012,0.040938300000000094,0.171829,0.0,0.040938300000000094,3.9590617,4.0
324.5,0.177142,0.012229333000000064,-0.04906999999999995,0.171713,-0.12084366699999993,-0.127764,0.170579,-0.04279066699999978,0.0,0.171696,0.012229333000000064,0.0,4.0,3.987770667
325.0,0.17724,0.014645332999999816,-0.04659469999999999,0.171801,-0.10290566700000037,-0.08705870000000004,0.170541,-0.11882966699999997,-0.08476470000000003,0.171716,-0.02216766700000017,0.0031412999999997915,3.9968587,3.985354667
325.5,0.177415,0.019715666999999826,-0.001206700000000005,0.17183,0.009923666999999803,-0.06382069999999995,0.170698,-0.03651133299999998,-0.0170477,0.172062,0.019715666999999826,0.008608300000000124,3.9913917,3.980284333
326.0,0.177536,0.0,-0.051449999999999996,0.171975,-0.04490399999999983,0.035368000000000066,0.17085,-0.026180999999999788,0.035368000000000066,0.172102,-0.03208499999999992,-0.027058999999999944,3.964632,4.0
326.5,0.177244,-0.11645433300000008,-0.1104210000000001,0.172165,-0.10412533300000026,0.0,0.171002,-0.04677533300000025,-0.01927600000000007,0.172054,-0.022904333000000054,-0.010251999999999928,4.0,3.996544333
327.0,0.177388,-0.02335900000000013,0.038419300000000156,0.17217,-0.0001340000000000785,-0.028019700000000203,0.170966,-0.11202700000000032,0.04919129999999994,0.172112,-0.07381100000000007,0.0062763000000001234,3.9508087,3.980767
327.5,0.177624,-0.03315199999999985,0.02334870000000011,0.172108,-0.13766500000000015,0.02334870000000011,0.171165,-0.12078299999999986,-0.1805753000000001,0.172249,-0.08000300000000005,-0.06631330000000002,3.9766513,4.0
328.0,0.177705,-0.03807366699999992,0.043660299999999985,0.172322,-0.08778366700000007,0.04375829999999992,0.17128,-0.037958666999999835,-0.0198697000000001,0.172634,0.01581633300000007,0.04375829999999992,3.9562417,3.984183667
328.5,0.17766,-0.027728999999999893,-0.01279969999999997,0.172424,-0.06711100000000014,0.05406630000000012,0.171341,-0.020319999999999894,-0.04595670000000007,0.172475,-0.0006669999999999732,0.03353729999999988,3.9456047,4.0
329.0,0.177947,-0.047302333000000196,0.0019689999999998875,0.172598,-0.03832033300000015,0.02566500000000005,0.171629,-0.021195333000000094,-0.03611999999999993,0.172787,0.012853666999999902,-0.014132999999999729,3.974335,3.986504333
329.5,0.178167,-0.04209133300000012,0.028231299999999848,0.17276,-0.015200333000000121,-0.0661117,0.171739,-0.007895333000000004,-0.020335699999999957,0.172959,-0.027575333000000146,-0.006204700000000063,3.9717687,3.986735333
330.0,0.178531,-0.03975133300000033,0.025134299999999943,0.173117,-0.09534533300000003,-0.009762700000000013,0.172083,0.0041956669999998475,-0.06103670000000028,0.173195,-0.03563933300000022,0.02624829999999978,3.9737517,3.995804333
330.5,0.178452,-0.09808100000000008,-0.05629200000000001,0.173418,-0.03425900000000004,-0.16538399999999998,0.172243,-0.04266000000000014,-0.03306299999999984,0.173354,-0.013946000000000236,0.014489000000000196,3.985511,3.999451
331.0,0.178845,-0.086858667,-0.06526129999999997,0.173467,0.03448733299999995,-0.13672430000000002,0.172521,-0.062032666999999986,-0.04201429999999995,0.173756,-0.057401667000000156,-0.09226729999999961,3.9821503,3.965512667
331.5,0.179056,-0.10202299999999997,-0.08137430000000023,0.173829,0.0,-0.004814300000000049,0.172774,-0.08902900000000002,-0.12876829999999995,0.174092,-0.1430600000000002,-0.015724300000000024,3.9775773,4.0
332.0,0.179414,-0.09146099999999979,-0.10591930000000005,0.174113,0.0,-0.08117630000000009,0.172886,-0.0984259999999999,-0.29245829999999984,0.17424,-0.022670999999999886,-0.07520330000000008,3.9723983,4.0
332.5,0.179535,-0.09434500000000012,-0.009866700000000339,0.17441,-0.012965000000000337,-0.23414970000000013,0.173207,-0.012844999999999995,-0.1309127000000001,0.174721,-0.0779040000000002,-0.20838370000000017,3.9740977,3.989885
333.0,0.180191,-0.03663300000000014,-0.026365300000000147,0.174698,-0.045078000000000173,-0.04182830000000015,0.17357,-0.08386300000000002,-0.008137300000000014,0.174761,-0.02090499999999995,-0.026905300000000132,3.9848593,4.0
333.5,0.180045,0.007892333000000029,0.009523300000000123,0.174958,-0.12444466700000012,-0.10003669999999998,0.173939,0.004291332999999842,-0.08092370000000004,0.175039,0.004218332999999852,0.027744300000000166,3.9722557,3.992107667
334.0,0.180436,-0.06507166700000022,-0.06060399999999966,0.174872,-0.014196667000000218,-0.07208900000000007,0.173973,-0.09948366699999989,0.0025919999999999277,0.175353,-0.06703366700000002,0.0063710000000001266,3.993629,3.979088667
334.5,0.180892,-0.037692999999999977,-0.004338999999999871,0.175431,-0.07993300000000003,-0.03169500000000003,0.174395,-0.06764899999999985,-0.055995999999999935,0.175522,0.0,-0.09239599999999992,4.0,4.0
335.0,0.181458,-0.059772999999999854,-0.13490369999999974,0.175891,0.023626999999999843,-0.06949469999999991,0.175036,-0.15370000000000017,-0.017253699999999927,0.176175,-0.04896300000000009,0.0030773000000001716,3.9969227,3.971934
335.5,0.181753,-0.03787800000000008,-0.0932417000000001,0.176246,-0.03652899999999981,0.0221673,0.175168,0.017014000000000085,-0.13623269999999987,0.176295,-0.015258999999999912,-0.026029700000000044,3.9778327,3.982986
336.0,0.181843,-0.07183933299999978,0.0764136999999998,0.176767,-0.03439433299999983,0.06775469999999961,0.175562,0.007316666999999999,-0.026982300000000237,0.176721,0.007316666999999999,0.07138769999999983,3.9068463,3.992683333
336.5,0.182332,-0.03684699999999985,-0.0410737000000001,0.177118,0.035065000000000346,-0.08653570000000022,0.17591,0.04071900000000017,-0.03135970000000032,0.177167,0.04071900000000017,-0.07382170000000032,3.9348957,3.959281
337.0,0.182943,-0.026520666999999776,-0.2076876999999997,0.177642,-0.04938366699999985,-0.19148169999999975,0.176393,-0.02458466700000006,-0.07559969999999971,0.177497,0.024800332999999952,0.0011583000000001675,3.9868097,3.969041667
337.5,0.183506,-0.17696466700000002,-0.1254837000000002,0.178044,-0.17088866699999983,-0.07610770000000011,0.176811,-0.08475066699999978,-0.27422670000000027,0.178097,-0.14736966699999998,0.006475299999999962,3.9757177,3.983398667
338.0,0.183657,0.0264660000000001,-0.1073236999999998,0.178244,-0.02038899999999977,-0.02511069999999993,0.177081,0.0264660000000001,0.0908983000000001,0.17844,-0.013897000000000048,0.04780329999999999,3.8842697,3.973534
338.5,0.183891,-0.051275666999999636,-0.08442669999999985,0.178578,-0.18724766699999984,-0.18892169999999986,0.177257,-0.02559566699999971,-0.05426669999999989,0.178698,-0.052886666999999665,-0.06153770000000014,3.9861377,3.990937667
339.0,0.184242,-0.30499199999999993,0.01677099999999987,0.178821,-0.0678700000000001,-0.0031609999999999694,0.177713,-0.2804000000000002,-0.12224999999999975,0.17897,-0.12213099999999999,-0.07069100000000006,3.975682,3.993777
339.5,0.184847,-0.10958866700000014,0.009327299999999816,0.179489,-0.16344366700000013,0.009327299999999816,0.17815,-0.13769666700000016,-0.06522370000000022,0.17966,-0.015535666999999975,-0.028802700000000403,3.9906727,3.936941667
340.0,0.185583,-0.0963413329999998,-0.045000700000000116,0.179506,-0.03687233299999981,-0.0336647000000001,0.178267,-0.09468333299999987,-0.20463770000000014,0.179502,-0.034970332999999965,0.04856630000000006,3.9514337,3.985487333
340.5,0.185491,-0.04461633300000001,0.025350299999999937,0.179055,-0.065750333,0.025350299999999937,0.177495,-0.08891133299999998,-0.0715406999999999,0.178817,-0.022725332999999903,0.025350299999999937,3.9746497,3.989910333
341.0,0.185772,-0.10673933299999971,-0.029040999999999872,0.179659,-0.0398103329999997,0.06268399999999996,0.178318,-0.07960233299999997,0.08099400000000001,0.179164,-0.08955233299999987,-0.025383000000000155,3.919006,3.993956333
341.5,0.186441,-0.04477600000000015,-0.14582499999999987,0.180027,0.04477399999999987,-0.03060099999999988,0.178581,-0.166045,-0.005787999999999904,0.179865,0.04477399999999987,-0.006069000000000102,3.967883,3.955226
342.0,0.186865,-0.1282289999999997,-0.0013480000000001269,0.180468,0.01061600000000018,-0.07946199999999992,0.178952,-0.026717999999999797,-0.054942000000000046,0.180085,-0.008183999999999969,-0.01738300000000015,4.0,3.989384
342.5,0.187075,-0.3548,-0.12513369999999968,0.180578,-0.14196600000000004,-0.1433156999999996,0.179211,-0.3298770000000002,-0.19690969999999997,0.180465,-0.053990000000000204,-0.011278699999999642,3.9943807,4.0
343.0,0.187689,-0.1365630000000002,-0.10217600000000004,0.181118,-0.11313199999999979,0.019278999999999602,0.179823,-0.25405599999999984,-0.08780900000000003,0.181014,-0.027730000000000032,-0.0397350000000003,3.979865,4.0
343.5,0.188122,-0.06569433300000016,0.02150799999999986,0.181549,-0.03745933300000015,-0.02187500000000009,0.180275,0.017483667000000036,-0.07147900000000007,0.181491,0.0015206669999998645,0.05417800000000028,3.918583,3.982516333
344.0,0.18877,-0.029480000000000395,-0.16566269999999994,0.18196,0.02203299999999997,-0.08766469999999993,0.180474,0.03769799999999979,-0.08114670000000013,0.181827,-0.03209400000000029,-0.15941470000000013,3.9858327,3.962302
344.5,0.189408,-0.02909066700000018,0.0354182999999999,0.182844,-0.007246666999999984,-0.06140970000000001,0.18119,0.019363332999999816,-0.26770169999999993,0.182419,-0.07868066699999998,0.0354182999999999,3.9645817,3.980636667
345.0,0.18991,-0.14875799999999995,0.009851299999999785,0.183311,-0.040757000000000154,0.009851299999999785,0.181692,-0.026317000000000146,-0.22441970000000033,0.183103,0.0,-0.05620370000000019,3.9901487,4.0
